# Longitud de onda (micrones)	Flujo (W)
6.003997330451e-01	4.950378133959e-37
6.005470723718e-01	4.963715900683e-37
6.006944116985e-01	4.981332575167e-37
6.008417510252e-01	5.006266428717e-37
6.009890903519e-01	5.032964275063e-37
6.011364296786e-01	5.059710060269e-37
6.012837690053e-01	5.086455860042e-37
6.014311083320e-01	5.113201659814e-37
6.015784476587e-01	5.139947459586e-37
6.017257869854e-01	5.166693259358e-37
6.018731263121e-01	5.193439059130e-37
6.020204656388e-01	5.220184858902e-37
6.021678049655e-01	5.246930658674e-37
6.023151442922e-01	5.273676458446e-37
6.024624836189e-01	5.300422258218e-37
6.026098229456e-01	5.327168057991e-37
6.027571622723e-01	5.353913857763e-37
6.029045015990e-01	5.380659657535e-37
6.030518409257e-01	5.407405457307e-37
6.031991802524e-01	5.434151257079e-37
6.033465195791e-01	5.460897056851e-37
6.034938589058e-01	5.487642856623e-37
6.036411982325e-01	5.514388656395e-37
6.037885375592e-01	5.541134456168e-37
6.039358768859e-01	5.567880255940e-37
6.040832162126e-01	5.594626055712e-37
6.042305555393e-01	5.621371855484e-37
6.043778948660e-01	5.648117655256e-37
6.045252341927e-01	5.674863455028e-37
6.046725735194e-01	5.701609254800e-37
6.048199128461e-01	5.728355054573e-37
6.049672521728e-01	5.755100854345e-37
6.051145914995e-01	5.781846654117e-37
6.052619308262e-01	5.808592453889e-37
6.054092701529e-01	5.835338253661e-37
6.055566094796e-01	5.862084053433e-37
6.057039488063e-01	5.888829853205e-37
6.058512881330e-01	5.915575652977e-37
6.059986274597e-01	5.942321452750e-37
6.061459667864e-01	5.969067252522e-37
6.062933061131e-01	5.995813052294e-37
6.064406454398e-01	6.022558852066e-37
6.065879847665e-01	6.049304651838e-37
6.067353240932e-01	6.076050451610e-37
6.068826634199e-01	6.102796251382e-37
6.070300027466e-01	6.129542051155e-37
6.071773420733e-01	6.156287850927e-37
6.073246814000e-01	6.183033650699e-37
6.074720207267e-01	6.209779450471e-37
6.076193600534e-01	6.236525250243e-37
6.077666993801e-01	6.263271050015e-37
6.079140387068e-01	6.290016849787e-37
6.080613780335e-01	6.316762649560e-37
6.082087173602e-01	6.343508449332e-37
6.083560566869e-01	6.370254249104e-37
6.085033960136e-01	6.397000048876e-37
6.086507353403e-01	6.423745848648e-37
6.087980746670e-01	6.450491648420e-37
6.089454139937e-01	6.477237448192e-37
6.090927533204e-01	6.503983247964e-37
6.092400926471e-01	6.530729047737e-37
6.093874319738e-01	6.557474847509e-37
6.095347713005e-01	6.584220647281e-37
6.096821106272e-01	6.610966447053e-37
6.098294499539e-01	6.637712246825e-37
6.099767892806e-01	6.664458046597e-37
6.101241286073e-01	6.691203846369e-37
6.102714679340e-01	6.717949646142e-37
6.104188072607e-01	6.744695445914e-37
6.105661465874e-01	6.771441245686e-37
6.107134859141e-01	6.798187045458e-37
6.108608252408e-01	6.824932845230e-37
6.110081645675e-01	6.851678645002e-37
6.111555038942e-01	6.878424444774e-37
6.113028432209e-01	6.905170244546e-37
6.114501825476e-01	6.931916044319e-37
6.115975218743e-01	6.958661844091e-37
6.117448612010e-01	6.985407643863e-37
6.118922005277e-01	7.012153443635e-37
6.120395398544e-01	7.038899243407e-37
6.121868791811e-01	7.065645043179e-37
6.123342185078e-01	7.092390842951e-37
6.124815578345e-01	7.119136642723e-37
6.126288971612e-01	7.145882442496e-37
6.127762364879e-01	7.172628242268e-37
6.129235758146e-01	7.199374042040e-37
6.130709151413e-01	7.226119841812e-37
6.132182544680e-01	7.252865641584e-37
6.133655937947e-01	7.279611441356e-37
6.135129331214e-01	7.306357241128e-37
6.136602724481e-01	7.333103040901e-37
6.138076117748e-01	7.359848840673e-37
6.139549511015e-01	7.386594640445e-37
6.141022904282e-01	7.413340440217e-37
6.142496297549e-01	7.440086239989e-37
6.143969690816e-01	7.466832039761e-37
6.145443084083e-01	7.493577839533e-37
6.146916477350e-01	7.520323639305e-37
6.148389870617e-01	7.547069439078e-37
6.149863263884e-01	7.573815238850e-37
6.151336657151e-01	7.600561038622e-37
6.152810050418e-01	7.627306838394e-37
6.154283443685e-01	7.654052638166e-37
6.155756836952e-01	7.680798437938e-37
6.157230230219e-01	7.707544237710e-37
6.158703623486e-01	7.734290037483e-37
6.160177016753e-01	7.761035837255e-37
6.161650410020e-01	7.787781637027e-37
6.163123803287e-01	7.814527436799e-37
6.164597196555e-01	7.841273236571e-37
6.166070589822e-01	7.868019036343e-37
6.167543983089e-01	7.894764836115e-37
6.169017376356e-01	7.921510635888e-37
6.170490769623e-01	7.948256435660e-37
6.171964162890e-01	7.975002235432e-37
6.173437556157e-01	8.001748035204e-37
6.174910949424e-01	8.028493834976e-37
6.176384342691e-01	8.055239634748e-37
6.177857735958e-01	8.081985434520e-37
6.179331129225e-01	8.108731234292e-37
6.180804522492e-01	8.135477034065e-37
6.182277915759e-01	8.162222833837e-37
6.183751309026e-01	8.188968633609e-37
6.185224702293e-01	8.215714433381e-37
6.186698095560e-01	8.242460233153e-37
6.188171488827e-01	8.269206032925e-37
6.189644882094e-01	8.295951832697e-37
6.191118275361e-01	8.322697632470e-37
6.192591668628e-01	8.349443432242e-37
6.194065061895e-01	8.376189232014e-37
6.195538455162e-01	8.402935031786e-37
6.197011848429e-01	8.429680831558e-37
6.198485241696e-01	8.456426631330e-37
6.199958634963e-01	8.483172431102e-37
6.201432028230e-01	8.509918230874e-37
6.202905421497e-01	8.536664030647e-37
6.204378814764e-01	8.563409830419e-37
6.205852208031e-01	8.590155630191e-37
6.207325601298e-01	8.616901429963e-37
6.208798994565e-01	8.643647229735e-37
6.210272387832e-01	8.670393029507e-37
6.211745781099e-01	8.697138829279e-37
6.213219174366e-01	8.723884629052e-37
6.214692567633e-01	8.750636139292e-37
6.216165960900e-01	8.778079379857e-37
6.217639354167e-01	8.813773289098e-37
6.219112747434e-01	8.863482581840e-37
6.220586140701e-01	8.916853962078e-37
6.222059533968e-01	8.970347933070e-37
6.223532927235e-01	9.023842045332e-37
6.225006320502e-01	9.077336157594e-37
6.226479713769e-01	9.130830269856e-37
6.227953107036e-01	9.184324382119e-37
6.229426500303e-01	9.237818494381e-37
6.230899893570e-01	9.291312606643e-37
6.232373286837e-01	9.344806718906e-37
6.233846680104e-01	9.398300831168e-37
6.235320073371e-01	9.451794943430e-37
6.236793466638e-01	9.505289055692e-37
6.238266859905e-01	9.558783167955e-37
6.239740253172e-01	9.612277280217e-37
6.241213646439e-01	9.665771392479e-37
6.242687039706e-01	9.719265504741e-37
6.244160432973e-01	9.772759617003e-37
6.245633826240e-01	9.826253729266e-37
6.247107219507e-01	9.879747841528e-37
6.248580612774e-01	9.933241953790e-37
6.250054006041e-01	9.986736066052e-37
6.251527399308e-01	1.004023017831e-36
6.253000792575e-01	1.009372429058e-36
6.254474185842e-01	1.014721840284e-36
6.255947579109e-01	1.020071251510e-36
6.257420972376e-01	1.025420662736e-36
6.258894365643e-01	1.030770073963e-36
6.260367758910e-01	1.036119485189e-36
6.261841152177e-01	1.041468896415e-36
6.263314545444e-01	1.046818307641e-36
6.264787938711e-01	1.052167718868e-36
6.266261331978e-01	1.057517130094e-36
6.267734725245e-01	1.062866541320e-36
6.269208118512e-01	1.068215952546e-36
6.270681511779e-01	1.073565363772e-36
6.272154905046e-01	1.078914774999e-36
6.273628298313e-01	1.084264186225e-36
6.275101691580e-01	1.089613597451e-36
6.276575084847e-01	1.094963008677e-36
6.278048478114e-01	1.100312419904e-36
6.279521871381e-01	1.105661831130e-36
6.280995264648e-01	1.111011242356e-36
6.282468657915e-01	1.116360653582e-36
6.283942051182e-01	1.121710064808e-36
6.285415444449e-01	1.127059476035e-36
6.286888837716e-01	1.132408887261e-36
6.288362230983e-01	1.137758298487e-36
6.289835624250e-01	1.143107709713e-36
6.291309017517e-01	1.148457120940e-36
6.292782410784e-01	1.153806532166e-36
6.294255804051e-01	1.159155943392e-36
6.295729197318e-01	1.164505354618e-36
6.297202590585e-01	1.169854765845e-36
6.298675983852e-01	1.175204177071e-36
6.300149377119e-01	1.180553588297e-36
6.301622770386e-01	1.185902999523e-36
6.303096163653e-01	1.191252410749e-36
6.304569556920e-01	1.196601821976e-36
6.306042950187e-01	1.201951233202e-36
6.307516343454e-01	1.207300644428e-36
6.308989736721e-01	1.212650055654e-36
6.310463129988e-01	1.217999466881e-36
6.311936523255e-01	1.223348878107e-36
6.313409916522e-01	1.228698289333e-36
6.314883309789e-01	1.234047700559e-36
6.316356703056e-01	1.239397111785e-36
6.317830096323e-01	1.244746523012e-36
6.319303489590e-01	1.250095934238e-36
6.320776882857e-01	1.255445345464e-36
6.322250276124e-01	1.260794756690e-36
6.323723669391e-01	1.266144167917e-36
6.325197062658e-01	1.271493579143e-36
6.326670455925e-01	1.276842990369e-36
6.328143849192e-01	1.282192401595e-36
6.329617242459e-01	1.287541812822e-36
6.331090635726e-01	1.292891224048e-36
6.332564028993e-01	1.298240635274e-36
6.334037422260e-01	1.303590046500e-36
6.335510815527e-01	1.308939457726e-36
6.336984208794e-01	1.314288868953e-36
6.338457602061e-01	1.319638280179e-36
6.339930995328e-01	1.324987691405e-36
6.341404388595e-01	1.330337102631e-36
6.342877781862e-01	1.335686513858e-36
6.344351175129e-01	1.341035925084e-36
6.345824568396e-01	1.346385336310e-36
6.347297961663e-01	1.351734747536e-36
6.348771354930e-01	1.357084158762e-36
6.350244748197e-01	1.362433569989e-36
6.351718141464e-01	1.367782981215e-36
6.353191534731e-01	1.373132392441e-36
6.354664927998e-01	1.378481803667e-36
6.356138321265e-01	1.383831214894e-36
6.357611714532e-01	1.389180626120e-36
6.359085107799e-01	1.394530037346e-36
6.360558501066e-01	1.399879448572e-36
6.362031894333e-01	1.405228859798e-36
6.363505287600e-01	1.410578271025e-36
6.364978680867e-01	1.415927682251e-36
6.366452074134e-01	1.421277093477e-36
6.367925467401e-01	1.426626504703e-36
6.369398860668e-01	1.431975915930e-36
6.370872253935e-01	1.437325327156e-36
6.372345647202e-01	1.442674738382e-36
6.373819040469e-01	1.448024149608e-36
6.375292433736e-01	1.453373560835e-36
6.376765827003e-01	1.458722972061e-36
6.378239220270e-01	1.464072383287e-36
6.379712613537e-01	1.469421794513e-36
6.381186006804e-01	1.474771205739e-36
6.382659400071e-01	1.480120616966e-36
6.384132793338e-01	1.485470028192e-36
6.385606186605e-01	1.490819439418e-36
6.387079579872e-01	1.496168850644e-36
6.388552973139e-01	1.501518261871e-36
6.390026366406e-01	1.506867673097e-36
6.391499759673e-01	1.512217084323e-36
6.392973152940e-01	1.517566495549e-36
6.394446546207e-01	1.522915906775e-36
6.395919939474e-01	1.528265318002e-36
6.397393332741e-01	1.533614729228e-36
6.398866726008e-01	1.538964140454e-36
6.400340119275e-01	1.544313551680e-36
6.401813512542e-01	1.549662962907e-36
6.403286905809e-01	1.555012374133e-36
6.404760299076e-01	1.560361785359e-36
6.406233692343e-01	1.565711196585e-36
6.407707085610e-01	1.571060607812e-36
6.409180478877e-01	1.576410019038e-36
6.410653872144e-01	1.581759430264e-36
6.412127265411e-01	1.587108841490e-36
6.413600658678e-01	1.592458252716e-36
6.415074051945e-01	1.597807663943e-36
6.416547445212e-01	1.603157075169e-36
6.418020838479e-01	1.608506486395e-36
6.419494231746e-01	1.613855897621e-36
6.420967625013e-01	1.619205308848e-36
6.422441018280e-01	1.624554720074e-36
6.423914411547e-01	1.629904131300e-36
6.425387804814e-01	1.635253542526e-36
6.426861198081e-01	1.640602953752e-36
6.428334591348e-01	1.645952364979e-36
6.429807984615e-01	1.651301776205e-36
6.431281377882e-01	1.656651187431e-36
6.432754771149e-01	1.662002004392e-36
6.434228164417e-01	1.667489019714e-36
6.435701557684e-01	1.674488210011e-36
6.437174950951e-01	1.684113251864e-36
6.438648344218e-01	1.694502452201e-36
6.440121737485e-01	1.704923866900e-36
6.441595130752e-01	1.715345370127e-36
6.443068524019e-01	1.725766873353e-36
6.444541917286e-01	1.736188376580e-36
6.446015310553e-01	1.746609879806e-36
6.447488703820e-01	1.757031383032e-36
6.448962097087e-01	1.767452886259e-36
6.450435490354e-01	1.777874389485e-36
6.451908883621e-01	1.788295892711e-36
6.453382276888e-01	1.798717395938e-36
6.454855670155e-01	1.809138899164e-36
6.456329063422e-01	1.819560402390e-36
6.457802456689e-01	1.829981905617e-36
6.459275849956e-01	1.840403408843e-36
6.460749243223e-01	1.850824912069e-36
6.462222636490e-01	1.861246415296e-36
6.463696029757e-01	1.871667918522e-36
6.465169423024e-01	1.882089421748e-36
6.466642816291e-01	1.892510924975e-36
6.468116209558e-01	1.902932428201e-36
6.469589602825e-01	1.913353931428e-36
6.471062996092e-01	1.923775434654e-36
6.472536389359e-01	1.934196937880e-36
6.474009782626e-01	1.944618441107e-36
6.475483175893e-01	1.955039944333e-36
6.476956569160e-01	1.965461447559e-36
6.478429962427e-01	1.975882950786e-36
6.479903355694e-01	1.986304454012e-36
6.481376748961e-01	1.996725957238e-36
6.482850142228e-01	2.007147460465e-36
6.484323535495e-01	2.017568963691e-36
6.485796928762e-01	2.027990466917e-36
6.487270322029e-01	2.038411970144e-36
6.488743715296e-01	2.048833473370e-36
6.490217108563e-01	2.059254976596e-36
6.491690501830e-01	2.069676479823e-36
6.493163895097e-01	2.080097983049e-36
6.494637288364e-01	2.090519486275e-36
6.496110681631e-01	2.100940989502e-36
6.497584074898e-01	2.111362492728e-36
6.499057468165e-01	2.121783995954e-36
6.500530861432e-01	2.132205499181e-36
6.502004254699e-01	2.142627002407e-36
6.503477647966e-01	2.153048505634e-36
6.504951041233e-01	2.163470008860e-36
6.506424434500e-01	2.173891512086e-36
6.507897827767e-01	2.184313015313e-36
6.509371221034e-01	2.194734518539e-36
6.510844614301e-01	2.205156021765e-36
6.512318007568e-01	2.215577524992e-36
6.513791400835e-01	2.225999028218e-36
6.515264794102e-01	2.236420531444e-36
6.516738187369e-01	2.246842034671e-36
6.518211580636e-01	2.257263537897e-36
6.519684973903e-01	2.267685041123e-36
6.521158367170e-01	2.278106544350e-36
6.522631760437e-01	2.288528047576e-36
6.524105153704e-01	2.298949550803e-36
6.525578546971e-01	2.309371054029e-36
6.527051940238e-01	2.319792557255e-36
6.528525333505e-01	2.330214060481e-36
6.529998726772e-01	2.340635563708e-36
6.531472120039e-01	2.351057066934e-36
6.532945513306e-01	2.361478570161e-36
6.534418906573e-01	2.371900073387e-36
6.535892299840e-01	2.382321576613e-36
6.537365693107e-01	2.392743079840e-36
6.538839086374e-01	2.403164583066e-36
6.540312479641e-01	2.413586086292e-36
6.541785872908e-01	2.424007589519e-36
6.543259266175e-01	2.434429092745e-36
6.544732659442e-01	2.444850595971e-36
6.546206052709e-01	2.455272099198e-36
6.547679445976e-01	2.465693602424e-36
6.549152839243e-01	2.476115105650e-36
6.550626232510e-01	2.486536608877e-36
6.552099625777e-01	2.496958112103e-36
6.553573019044e-01	2.507379615329e-36
6.555046412311e-01	2.517801118556e-36
6.556519805578e-01	2.528222621782e-36
6.557993198845e-01	2.538644125009e-36
6.559466592112e-01	2.549065628235e-36
6.560939985379e-01	2.559487131461e-36
6.562413378646e-01	2.569908634688e-36
6.563886771913e-01	2.580330137914e-36
6.565360165180e-01	2.590751641140e-36
6.566833558447e-01	2.601173144367e-36
6.568306951714e-01	2.611594647593e-36
6.569780344981e-01	2.622016150819e-36
6.571253738248e-01	2.632437654046e-36
6.572727131515e-01	2.642859157272e-36
6.574200524782e-01	2.653280660498e-36
6.575673918049e-01	2.663702163725e-36
6.577147311316e-01	2.674123666951e-36
6.578620704583e-01	2.684545170177e-36
6.580094097850e-01	2.694966673404e-36
6.581567491117e-01	2.705388176630e-36
6.583040884384e-01	2.715809679856e-36
6.584514277651e-01	2.726231183083e-36
6.585987670918e-01	2.736652686309e-36
6.587461064185e-01	2.747074189536e-36
6.588934457452e-01	2.757495692762e-36
6.590407850719e-01	2.767917195988e-36
6.591881243986e-01	2.778338699215e-36
6.593354637253e-01	2.788760202441e-36
6.594828030520e-01	2.799181705667e-36
6.596301423787e-01	2.809603208894e-36
6.597774817054e-01	2.820024712120e-36
6.599248210321e-01	2.830446215346e-36
6.600721603588e-01	2.840867718573e-36
6.602194996855e-01	2.851289221799e-36
6.603668390122e-01	2.861710725025e-36
6.605141783389e-01	2.872132228252e-36
6.606615176656e-01	2.882553731478e-36
6.608088569923e-01	2.892975234704e-36
6.609561963190e-01	2.903396737931e-36
6.611035356457e-01	2.913818241157e-36
6.612508749724e-01	2.924239744384e-36
6.613982142991e-01	2.934661247610e-36
6.615455536258e-01	2.945082750836e-36
6.616928929525e-01	2.955504254063e-36
6.618402322792e-01	2.965925757289e-36
6.619875716059e-01	2.976347260515e-36
6.621349109326e-01	2.986768763742e-36
6.622822502593e-01	2.997190266968e-36
6.624295895860e-01	3.007611770194e-36
6.625769289127e-01	3.018033273421e-36
6.627242682394e-01	3.028454776647e-36
6.628716075661e-01	3.038876279873e-36
6.630189468928e-01	3.049297783100e-36
6.631662862195e-01	3.059719286326e-36
6.633136255462e-01	3.070140789552e-36
6.634609648729e-01	3.080562292779e-36
6.636083041996e-01	3.090983796005e-36
6.637556435263e-01	3.101405299232e-36
6.639029828530e-01	3.111826802458e-36
6.640503221797e-01	3.122248305684e-36
6.641976615064e-01	3.132669808911e-36
6.643450008331e-01	3.143091312137e-36
6.644923401598e-01	3.153512815363e-36
6.646396794865e-01	3.163934318590e-36
6.647870188132e-01	3.174355821816e-36
6.649343581399e-01	3.184777325042e-36
6.650816974666e-01	3.195198828269e-36
6.652290367933e-01	3.205620331495e-36
6.653763761200e-01	3.216041834721e-36
6.655237154467e-01	3.226463337948e-36
6.656710547734e-01	3.236884841174e-36
6.658183941001e-01	3.247307376767e-36
6.659657334268e-01	3.257863556545e-36
6.661130727535e-01	3.270398882363e-36
6.662604120802e-01	3.287801381068e-36
6.664077514069e-01	3.307388774885e-36
6.665550907336e-01	3.327140842533e-36
6.667024300603e-01	3.346894413125e-36
6.668497693870e-01	3.366647983716e-36
6.669971087137e-01	3.386401554308e-36
6.671444480404e-01	3.406155124900e-36
6.672917873671e-01	3.425908695491e-36
6.674391266938e-01	3.445662266083e-36
6.675864660205e-01	3.465415836675e-36
6.677338053472e-01	3.485169407266e-36
6.678811446739e-01	3.504922977858e-36
6.680284840006e-01	3.524676548450e-36
6.681758233273e-01	3.544430119041e-36
6.683231626540e-01	3.564183689633e-36
6.684705019807e-01	3.583937260225e-36
6.686178413074e-01	3.603690830816e-36
6.687651806341e-01	3.623444401408e-36
6.689125199608e-01	3.643197972000e-36
6.690598592875e-01	3.662951542592e-36
6.692071986142e-01	3.682705113183e-36
6.693545379409e-01	3.702458683775e-36
6.695018772676e-01	3.722212254367e-36
6.696492165943e-01	3.741965824958e-36
6.697965559210e-01	3.761719395550e-36
6.699438952477e-01	3.781472966142e-36
6.700912345744e-01	3.801226536733e-36
6.702385739011e-01	3.820980107325e-36
6.703859132278e-01	3.840733677917e-36
6.705332525546e-01	3.860487248509e-36
6.706805918813e-01	3.880240819100e-36
6.708279312080e-01	3.899994389692e-36
6.709752705347e-01	3.919747960283e-36
6.711226098614e-01	3.939501530875e-36
6.712699491881e-01	3.959255101467e-36
6.714172885148e-01	3.979008672059e-36
6.715646278415e-01	3.998762242650e-36
6.717119671682e-01	4.018515813242e-36
6.718593064949e-01	4.038269383834e-36
6.720066458216e-01	4.058022954425e-36
6.721539851483e-01	4.077776525017e-36
6.723013244750e-01	4.097530095609e-36
6.724486638017e-01	4.117283666200e-36
6.725960031284e-01	4.137037236792e-36
6.727433424551e-01	4.156790807384e-36
6.728906817818e-01	4.176544377975e-36
6.730380211085e-01	4.196297948567e-36
6.731853604352e-01	4.216051519159e-36
6.733326997619e-01	4.235805089751e-36
6.734800390886e-01	4.255558660342e-36
6.736273784153e-01	4.275312230934e-36
6.737747177420e-01	4.295065801526e-36
6.739220570687e-01	4.314819372117e-36
6.740693963954e-01	4.334572942709e-36
6.742167357221e-01	4.354326513301e-36
6.743640750488e-01	4.374080083892e-36
6.745114143755e-01	4.393833654484e-36
6.746587537022e-01	4.413587225076e-36
6.748060930289e-01	4.433340795667e-36
6.749534323556e-01	4.453094366259e-36
6.751007716823e-01	4.472847936851e-36
6.752481110090e-01	4.492601507443e-36
6.753954503357e-01	4.512355078034e-36
6.755427896624e-01	4.532108648626e-36
6.756901289891e-01	4.551862219217e-36
6.758374683158e-01	4.571615789809e-36
6.759848076425e-01	4.591369360401e-36
6.761321469692e-01	4.611122930993e-36
6.762794862959e-01	4.630876501584e-36
6.764268256226e-01	4.650630072176e-36
6.765741649493e-01	4.670383642768e-36
6.767215042760e-01	4.690137213359e-36
6.768688436027e-01	4.709890783951e-36
6.770161829294e-01	4.729644354543e-36
6.771635222561e-01	4.749397925134e-36
6.773108615828e-01	4.769151495726e-36
6.774582009095e-01	4.788905066318e-36
6.776055402362e-01	4.808658636909e-36
